Lk surface

Theta = 0.09838

Maximum at 4Ner(region) = 100.000 : Lk = -15447268.296



4Ner(region)   Pairwise Lk

    0.00  -15605414.532
    1.00  -15585018.459
    2.00  -15567903.063
    3.00  -15555781.030
    4.00  -15546768.224
    5.00  -15539550.659
    6.00  -15533379.807
    7.00  -15527951.535
    8.00  -15523111.378
    9.00  -15518769.991
   10.00  -15514857.103
   11.00  -15511291.515
   12.00  -15508018.884
   13.00  -15504989.565
   14.00  -15502165.980
   15.00  -15499526.702
   16.00  -15497062.793
   17.00  -15494760.670
   18.00  -15492610.626
   19.00  -15490596.267
   20.00  -15488710.204
   21.00  -15486938.410
   22.00  -15485273.017
   23.00  -15483706.328
   24.00  -15482227.527
   25.00  -15480828.868
   26.00  -15479500.709
   27.00  -15478239.294
   28.00  -15477038.983
   29.00  -15475896.067
   30.00  -15474806.082
   31.00  -15473764.831
   32.00  -15472770.113
   33.00  -15471817.536
   34.00  -15470906.617
   35.00  -15470034.923
   36.00  -15469199.829
   37.00  -15468399.380
   38.00  -15467631.898
   39.00  -15466896.851
   40.00  -15466191.914
   41.00  -15465515.385
   42.00  -15464865.335
   43.00  -15464241.097
   44.00  -15463641.492
   45.00  -15463064.100
   46.00  -15462507.678
   47.00  -15461970.858
   48.00  -15461452.688
   49.00  -15460951.807
   50.00  -15460467.326
   51.00  -15459998.492
   52.00  -15459544.087
   53.00  -15459103.381
   54.00  -15458675.406
   55.00  -15458259.572
   56.00  -15457855.217
   57.00  -15457461.930
   58.00  -15457079.422
   59.00  -15456706.880
   60.00  -15456344.043
   61.00  -15455990.532
   62.00  -15455645.817
   63.00  -15455310.044
   64.00  -15454982.507
   65.00  -15454663.567
   66.00  -15454352.510
   67.00  -15454048.902
   68.00  -15453752.575
   69.00  -15453463.687
   70.00  -15453181.903
   71.00  -15452906.734
   72.00  -15452638.093
   73.00  -15452375.989
   74.00  -15452120.060
   75.00  -15451870.130
   76.00  -15451626.449
   77.00  -15451388.637
   78.00  -15451156.638
   79.00  -15450930.205
   80.00  -15450709.219
   81.00  -15450493.500
   82.00  -15450283.064
   83.00  -15450077.702
   84.00  -15449877.619
   85.00  -15449682.413
   86.00  -15449491.793
   87.00  -15449305.927
   88.00  -15449124.503
   89.00  -15448947.506
   90.00  -15448775.122
   91.00  -15448606.943
   92.00  -15448442.797
   93.00  -15448282.649
   94.00  -15448126.624
   95.00  -15447974.446
   96.00  -15447825.951
   97.00  -15447681.162
   98.00  -15447540.025
   99.00  -15447402.383
  100.00  -15447268.296
