Lk surface

Theta = 0.11687

Maximum at 4Ner(region) = 100.000 : Lk = -44546320.045



4Ner(region)   Pairwise Lk

    0.00  -44798575.271
    1.00  -44776299.744
    2.00  -44754357.908
    3.00  -44733846.057
    4.00  -44716466.185
    5.00  -44702173.647
    6.00  -44690347.199
    7.00  -44680157.469
    8.00  -44671008.679
    9.00  -44662608.443
   10.00  -44654875.548
   11.00  -44647774.232
   12.00  -44641280.398
   13.00  -44635349.136
   14.00  -44629927.443
   15.00  -44624951.952
   16.00  -44620369.890
   17.00  -44616151.719
   18.00  -44612255.303
   19.00  -44608652.203
   20.00  -44605314.376
   21.00  -44602224.484
   22.00  -44599364.448
   23.00  -44596715.581
   24.00  -44594259.170
   25.00  -44591973.846
   26.00  -44589846.486
   27.00  -44587859.467
   28.00  -44585996.193
   29.00  -44584243.117
   30.00  -44582586.037
   31.00  -44581014.306
   32.00  -44579522.447
   33.00  -44578102.912
   34.00  -44576749.860
   35.00  -44575458.016
   36.00  -44574225.831
   37.00  -44573050.978
   38.00  -44571929.612
   39.00  -44570859.137
   40.00  -44569838.243
   41.00  -44568863.440
   42.00  -44567933.102
   43.00  -44567045.842
   44.00  -44566198.699
   45.00  -44565390.014
   46.00  -44564616.074
   47.00  -44563876.032
   48.00  -44563168.114
   49.00  -44562490.242
   50.00  -44561840.638
   51.00  -44561217.110
   52.00  -44560617.523
   53.00  -44560040.125
   54.00  -44559482.470
   55.00  -44558944.210
   56.00  -44558423.931
   57.00  -44557920.171
   58.00  -44557432.227
   59.00  -44556959.229
   60.00  -44556500.163
   61.00  -44556054.771
   62.00  -44555622.630
   63.00  -44555202.096
   64.00  -44554793.478
   65.00  -44554396.160
   66.00  -44554010.029
   67.00  -44553634.613
   68.00  -44553269.471
   69.00  -44552914.852
   70.00  -44552570.460
   71.00  -44552236.177
   72.00  -44551911.546
   73.00  -44551596.262
   74.00  -44551290.368
   75.00  -44550993.947
   76.00  -44550706.498
   77.00  -44550427.962
   78.00  -44550158.708
   79.00  -44549898.725
   80.00  -44549647.611
   81.00  -44549405.118
   82.00  -44549171.389
   83.00  -44548945.942
   84.00  -44548728.468
   85.00  -44548519.287
   86.00  -44548318.366
   87.00  -44548125.542
   88.00  -44547940.894
   89.00  -44547764.010
   90.00  -44547595.070
   91.00  -44547433.910
   92.00  -44547280.448
   93.00  -44547134.643
   94.00  -44546996.351
   95.00  -44546865.342
   96.00  -44546741.747
   97.00  -44546625.593
   98.00  -44546516.677
   99.00  -44546414.862
  100.00  -44546320.045
